#tau against probability density dp/dtau
0.000 0.561
0.050 0.594
0.100 0.617
0.150 0.641
0.200 0.668
0.250 0.696
0.300 0.727
0.350 0.762
0.400 0.801
0.450 0.844
0.500 0.891
0.550 0.947
0.600 1.007
0.650 1.077
0.700 1.164
0.750 1.267
0.800 1.397
0.850 1.556
0.900 1.760
0.950 2.024
